;LAP Aft Skirt Orifice Flow Mdot (lbm/s)
#I=0,694,1; C:\0_afc_work\First_Stage_AFT_Skirt_Launch_to_Touchdown_Thermal_Analysis\vent_c1d7a_las_qualis_Cp_cycle3_Tsurf.vsm C:\0_afc_work\First_Stage_AFT_Skirt_Launch_to_Touchdown_Thermal_Analysis\vent_c1d7a_las_qualis_Cp_cycle3_Tsurf.vsm @ Tue Oct 30 12:15:57 2018
0	-0.0099884	-0.0099884	-0.0099884	-0.0099884	-0.0099884	-0.0099884	-0.0099884	-0.0099884	-0.0099884	-0.0099884	-0.0099884
1	0.040549	6.1159e-005	5.6767e-005	-5.1775e-005	5.228e-005	5.22e-005	-5.259e-005	-5.3059e-005	-5.1235e-005	5.598e-005	2.9225e-005
2	0.066205	6.2585e-005	5.9158e-005	5.8842e-005	5.4919e-005	5.4849e-005	5.6751e-005	5.515e-005	5.8662e-005	5.8529e-005	2.8942e-005
3	0.090423	2.975e-005	1.8184e-005	1.6895e-005	1.0204e-005	8.4154e-006	1.4886e-005	1.1449e-005	1.3377e-005	1.6724e-005	-5.4895e-005
4	0.113	-9.8175e-005	-9.3167e-005	-9.3268e-005	-9.5467e-005	-9.5899e-005	-9.3819e-005	-9.4974e-005	-9.4622e-005	-9.3395e-005	-0.00013624
5	0.1336	-0.0002024	-0.00015379	-0.00015369	-0.00015612	-0.00015659	-0.00015424	-0.00015552	-0.00015519	-0.00015386	-0.00021422
6	0.15197	-0.00021796	-0.00021175	-0.00021152	-0.00021433	-0.00021487	-0.00021212	-0.0002136	-0.00021329	-0.00021174	-0.00029613
7	0.16787	-0.00026973	-0.00026891	-0.00026856	-0.00027181	-0.00027243	-0.00026922	-0.00027093	-0.00027064	-0.00026883	-0.00038329
8	0.1812	-0.00032458	-0.00032625	-0.0003258	-0.00032951	-0.00033023	-0.00032653	-0.00032849	-0.00032821	-0.00032612	-0.0004767
9	0.19186	-0.0003809	-0.00038417	-0.00038363	-0.00038782	-0.00038864	-0.00038443	-0.00038665	-0.00038638	-0.00038399	-0.00057678
10	0.19987	-0.00043791	-0.00044239	-0.00044175	-0.00044645	-0.00044738	-0.00044263	-0.00044512	-0.00044487	-0.00044216	-0.00068388
11	0.20527	-0.00049548	-0.00050106	-0.00050033	-0.00050556	-0.0005066	-0.00050128	-0.00050406	-0.00050383	-0.00050079	-0.00079798
12	0.20821	-0.00055373	-0.00056019	-0.00055937	-0.00056514	-0.0005663	-0.0005604	-0.00056347	-0.00056326	-0.00055988	-0.0009194
13	0.20879	-0.0006123	-0.00061954	-0.00061862	-0.00062495	-0.00062624	-0.00061974	-0.00062312	-0.00062292	-0.00061918	-0.0010481
14	0.20797	-0.00067175	-0.00067922	-0.00067821	-0.00068511	-0.00068652	-0.00067942	-0.0006831	-0.00068293	-0.00067882	-0.0011839
15	0.207	-0.00073102	-0.00073901	-0.00073792	-0.00074539	-0.00074692	-0.00073921	-0.00074321	-0.00074305	-0.00073858	-0.0013265
16	0.20595	-0.00078994	-0.0007983	-0.00079711	-0.00080519	-0.00080685	-0.0007985	-0.00080282	-0.00080269	-0.00079782	-0.0014776
17	0.20479	-0.0008501	-0.00085717	-0.00085593	-0.00086467	-0.00086648	-0.00085741	-0.0008621	-0.000862	-0.00085669	-0.0016489
18	0.20354	-0.0009092	-0.00091508	-0.00091377	-0.00092321	-0.00092518	-0.00091537	-0.00092044	-0.00092037	-0.00091459	-0.0016301
19	0.20218	-0.00096951	-0.00097192	-0.00097059	-0.0009808	-0.00098296	-0.00097231	-0.0009778	-0.0009778	-0.00097145	-0.0016145
19.16	0.20195	-0.0010309	-0.001033	-0.0010316	-0.0010423	-0.0010445	-0.0010334	-0.0010391	-0.0010391	-0.0010325	-0.0016007
;LAP Aft Skirt Orifice Flow Mdot (lbm/s)
#I=0,694,1; C:\0_afc_work\First_Stage_AFT_Skirt_Launch_to_Touchdown_Thermal_Analysis\vent_c1d7a_las_qualis_Cp_cycle3_Tsurf.vsm C:\0_afc_work\First_Stage_AFT_Skirt_Launch_to_Touchdown_Thermal_Analysis\vent_c1d7a_las_qualis_Cp_cycle3_Tsurf.vsm @ Tue Oct 30 12:52:42 2018
0	-0.0099884	-0.0099884	-0.0099884	-0.0099884	-0.0099884	-0.0099884	-0.0099884	-0.0099884	-0.0099884	-0.0099884	-0.0099884
;LAP Aft Skirt Orifice Flow Mdot (lbm/s)
#I=0,694,1; C:\0_afc_work\First_Stage_AFT_Skirt_Launch_to_Touchdown_Thermal_Analysis\vent_c1d7a_las_qualis_Cp_cycle3_Tsurf.vsm C:\0_afc_work\First_Stage_AFT_Skirt_Launch_to_Touchdown_Thermal_Analysis\vent_c1d7a_las_qualis_Cp_cycle3_Tsurf.vsm @ Tue Oct 30 12:53:36 2018
0	-0.0099884	-0.0099884	-0.0099884	-0.0099884	-0.0099884	-0.0099884	-0.0099884	-0.0099884	-0.0099884	-0.0099884	-0.0099884
;LAP Aft Skirt Orifice Flow Mdot (lbm/s)
#I=0,694,1; C:\0_afc_work\First_Stage_AFT_Skirt_Launch_to_Touchdown_Thermal_Analysis\vent_c1d7a_las_qualis_Cp_cycle3_Tsurf.vsm C:\0_afc_work\First_Stage_AFT_Skirt_Launch_to_Touchdown_Thermal_Analysis\vent_c1d7a_las_qualis_Cp_cycle3_Tsurf.vsm @ Tue Oct 30 12:54:16 2018
0	-0.0099884	-0.0099884	-0.0099884	-0.0099884	-0.0099884	-0.0099884	-0.0099884	-0.0099884	-0.0099884	-0.0099884	-0.0099884
;LAP Aft Skirt Orifice Flow Mdot (lbm/s)
#I=0,694,1; vent_c1d7a_las_qualis_Cp_cycle3_Tsurf.vsm C:\0_afc_work\First_Stage_AFT_Skirt_Launch_to_Touchdown_Thermal_Analysis\vent_c1d7a_las_qualis_Cp_cycle3_Tsurf.vsm @ Tue Oct 30 12:55:44 2018
0	-0.0099884	-0.0099884	-0.0099884	-0.0099884	-0.0099884	-0.0099884	-0.0099884	-0.0099884	-0.0099884	-0.0099884	-0.0099884
;LAP Aft Skirt Orifice Flow Mdot (lbm/s)
#I=0,694,1; vent_c1d7a_las_qualis_Cp_cycle3_Tsurf.vsm C:\0_afc_work\First_Stage_AFT_Skirt_Launch_to_Touchdown_Thermal_Analysis\vent_c1d7a_las_qualis_Cp_cycle3_Tsurf.vsm @ Tue Oct 30 12:56:26 2018
0	-0.0099884	-0.0099884	-0.0099884	-0.0099884	-0.0099884	-0.0099884	-0.0099884	-0.0099884	-0.0099884	-0.0099884	-0.0099884
;LAP Aft Skirt Orifice Flow Mdot (lbm/s)
#I=0,694,1; vent_c1d7a_las_qualis_Cp_cycle3_Tsurf.vsm C:\0_afc_work\First_Stage_AFT_Skirt_Launch_to_Touchdown_Thermal_Analysis\vent_c1d7a_las_qualis_Cp_cycle3_Tsurf.vsm @ Tue Oct 30 12:57:38 2018
0	-0.0099884	-0.0099884	-0.0099884	-0.0099884	-0.0099884	-0.0099884	-0.0099884	-0.0099884	-0.0099884	-0.0099884	-0.0099884
;LAP Aft Skirt Orifice Flow Mdot (lbm/s)
#I=0,694,1; vent_c1d7a_las_qualis_Cp_cycle3_Tsurf.vsm C:\0_afc_work\First_Stage_AFT_Skirt_Launch_to_Touchdown_Thermal_Analysis\vent_c1d7a_las_qualis_Cp_cycle3_Tsurf.vsm @ Tue Oct 30 12:58:53 2018
0	-0.0099884	-0.0099884	-0.0099884	-0.0099884	-0.0099884	-0.0099884	-0.0099884	-0.0099884	-0.0099884	-0.0099884	-0.0099884
;LAP Aft Skirt Orifice Flow Mdot (lbm/s)
#I=0,694,1; vent_c1d7a_las_qualis_Cp_cycle3_Tsurf.vsm C:\0_afc_work\First_Stage_AFT_Skirt_Launch_to_Touchdown_Thermal_Analysis\vent_c1d7a_las_qualis_Cp_cycle3_Tsurf.vsm @ Tue Oct 30 13:00:39 2018
0	-0.0099884	-0.0099884	-0.0099884	-0.0099884	-0.0099884	-0.0099884	-0.0099884	-0.0099884	-0.0099884	-0.0099884	-0.0099884
;LAP Aft Skirt Orifice Flow Mdot (lbm/s)
#I=0,694,1; vent_c1d7a_las_qualis_Cp_cycle3_Tsurf.vsm C:\0_afc_work\First_Stage_AFT_Skirt_Launch_to_Touchdown_Thermal_Analysis\vent_c1d7a_las_qualis_Cp_cycle3_Tsurf.vsm @ Tue Oct 30 13:01:11 2018
0	-0.0099884	-0.0099884	-0.0099884	-0.0099884	-0.0099884	-0.0099884	-0.0099884	-0.0099884	-0.0099884	-0.0099884	-0.0099884
;LAP Aft Skirt Orifice Flow Mdot (lbm/s)
#I=0,694,1; vent_c1d7a_las_qualis_Cp_cycle3_Tsurf.vsm C:\0_afc_work\First_Stage_AFT_Skirt_Launch_to_Touchdown_Thermal_Analysis\vent_c1d7a_las_qualis_Cp_cycle3_Tsurf.vsm @ Tue Oct 30 13:01:42 2018
0	-0.0099884	-0.0099884	-0.0099884	-0.0099884	-0.0099884	-0.0099884	-0.0099884	-0.0099884	-0.0099884	-0.0099884	-0.0099884
;LAP Aft Skirt Orifice Flow Mdot (lbm/s)
#I=0,694,1; vent_c1d7a_las_qualis_Cp_cycle3_Tsurf.vsm C:\0_afc_work\First_Stage_AFT_Skirt_Launch_to_Touchdown_Thermal_Analysis\vent_c1d7a_las_qualis_Cp_cycle3_Tsurf.vsm @ Tue Oct 30 13:02:04 2018
0	-0.0099884	-0.0099884	-0.0099884	-0.0099884	-0.0099884	-0.0099884	-0.0099884	-0.0099884	-0.0099884	-0.0099884	-0.0099884
1	-0.007464	-0.0074632	-0.0074656	-0.0074641	-0.0076205	-0.0076198	-0.0075444	-0.0076088	-0.0074641	-0.0074786	-0.0094646
2	-0.0074469	-0.0074461	-0.0074485	-0.0074471	-0.0075976	-0.007597	-0.0075243	-0.0075864	-0.007447	-0.0074609	-0.0093989
3	-0.007432	-0.0074312	-0.0074335	-0.0074322	-0.0075748	-0.0075742	-0.0075053	-0.0075641	-0.0074321	-0.0074453	-0.0093232
4	-0.0074139	-0.0074133	-0.0074155	-0.0074143	-0.0075488	-0.0075482	-0.0074832	-0.0075388	-0.0074141	-0.0074266	-0.0092403
5	-0.0073932	-0.0073926	-0.0073949	-0.0073937	-0.00752	-0.0075194	-0.0074584	-0.0075106	-0.0073934	-0.0074052	-0.0091495
6	-0.0073691	-0.0073686	-0.0073709	-0.0073699	-0.0074879	-0.0074873	-0.0074303	-0.0074791	-0.0073694	-0.0073806	-0.0090305
7	-0.0073421	-0.0073415	-0.0073439	-0.0073431	-0.007453	-0.0074524	-0.0073993	-0.0074449	-0.0073425	-0.007353	-0.0089027
8	-0.0073113	-0.0073108	-0.0073133	-0.0073126	-0.0074144	-0.0074138	-0.0073647	-0.007407	-0.0073118	-0.0073217	-0.0087645
9	-0.0072769	-0.0072764	-0.0072792	-0.0072785	-0.0073727	-0.007372	-0.0073268	-0.0073659	-0.0072775	-0.007287	-0.0086138
10	-0.0072382	-0.0072378	-0.0072408	-0.0072403	-0.0073268	-0.0073261	-0.0072848	-0.0073207	-0.007239	-0.007248	-0.0084478
11	-0.007195	-0.0071947	-0.007198	-0.0071977	-0.0072769	-0.007276	-0.0072385	-0.0072714	-0.007196	-0.0072047	-0.0082642
12	-0.0071469	-0.0071465	-0.0071504	-0.0071502	-0.0072221	-0.0072211	-0.0071874	-0.0072172	-0.0071481	-0.0071565	-0.0080555
13	-0.0070935	-0.0070932	-0.0070976	-0.0070976	-0.0071628	-0.0071617	-0.0071317	-0.0071586	-0.007095	-0.0071033	-0.0078128
14	-0.007034	-0.0070337	-0.0070388	-0.007039	-0.0070977	-0.0070965	-0.0070701	-0.0070942	-0.0070359	-0.0070442	-0.0075196
15	-0.0069679	-0.0069677	-0.0069737	-0.0069741	-0.0070268	-0.0070254	-0.0070025	-0.007024	-0.0069702	-0.0069787	-0.0071394
16	-0.0068944	-0.0068942	-0.0069014	-0.006902	-0.0069489	-0.0069473	-0.0069279	-0.0069469	-0.0068972	-0.0069061	-0.0065218
17	-0.0068123	-0.0068122	-0.0068209	-0.0068218	-0.0068635	-0.0068615	-0.0068456	-0.0068622	-0.0068159	-0.0068255	-0.0044872
18	-0.0067205	-0.0067204	-0.006731	-0.0067323	-0.006769	-0.0067666	-0.0067543	-0.0067686	-0.0067249	-0.0067355	-0.0044312
19	-0.0066169	-0.0066169	-0.0066302	-0.0066319	-0.0066641	-0.0066612	-0.0066526	-0.0066647	-0.0066225	-0.0066347	-0.0043725
20	-0.0064989	-0.006499	-0.006516	-0.0065184	-0.0065463	-0.0065426	-0.0065382	-0.006548	-0.0065062	-0.0065208	-0.0043119
21	-0.0063511	-0.0063525	-0.0063849	-0.0063903	-0.0064031	-0.0063969	-0.0064081	-0.0064119	-0.0063681	-0.0063925	-0.0042498
22	-0.0061758	-0.0061784	-0.0062278	-0.0062362	-0.0062375	-0.0062284	-0.0062539	-0.0062526	-0.0062028	-0.0062381	-0.0041864
23	-0.0059259	-0.0059319	-0.0060237	-0.0060385	-0.0060198	-0.0060039	-0.0060583	-0.0060483	-0.0059798	-0.0060403	-0.0041219
24	-0.0044531	-0.0044551	-0.0044907	-0.0056297	-0.004479	-0.0044725	-0.0057016	-0.0056159	-0.0044725	-0.0056382	-0.0040554
25	-0.0043217	-0.0043241	-0.0043638	-0.0043715	-0.0043491	-0.004342	-0.0043751	-0.0043645	-0.0043436	-0.0043714	-0.0039883
26	-0.004203	-0.0042057	-0.0042498	-0.0042584	-0.0042317	-0.0042239	-0.0042614	-0.0042492	-0.0042276	-0.0042583	-0.0039187
27	-0.0040744	-0.0040776	-0.0041265	-0.0041361	-0.0041047	-0.0040961	-0.0041385	-0.0041244	-0.004102	-0.0041359	-0.0038498
28	-0.0039441	-0.0039477	-0.0040017	-0.0040124	-0.0039759	-0.0039665	-0.0040142	-0.0039981	-0.0039749	-0.0040121	-0.0037801
29	-0.003812	-0.0038161	-0.0038755	-0.0038873	-0.0038454	-0.0038352	-0.0038884	-0.0038702	-0.0038462	-0.003887	-0.0037101
30	-0.0036781	-0.0036828	-0.0037478	-0.0037609	-0.0037131	-0.003702	-0.0037612	-0.0037408	-0.0037159	-0.0037605	-0.0036395
31	-0.0035377	-0.0035436	-0.0036194	-0.0036348	-0.003575	-0.0035624	-0.0036331	-0.0036084	-0.0035827	-0.0036344	-0.0035686
32	-0.0034002	-0.0034068	-0.0034897	-0.0035068	-0.0034393	-0.0034257	-0.0035039	-0.0034763	-0.0034499	-0.0035063	-0.0034973
33	-0.0032615	-0.0032688	-0.0033592	-0.0033779	-0.0033023	-0.0032876	-0.0033738	-0.0033433	-0.003316	-0.0033773	-0.0034258
34	-0.0031215	-0.0031297	-0.0032278	-0.0032482	-0.0031642	-0.0031483	-0.0032428	-0.0032091	-0.0031812	-0.0032476	-0.0031781
35	-0.0029808	-0.0029898	-0.003096	-0.0031183	-0.0030253	-0.0030083	-0.0031114	-0.0030744	-0.0030458	-0.0031175	-0.0030998
36	-0.0028394	-0.0028492	-0.0029638	-0.0029879	-0.0028857	-0.0028675	-0.0029795	-0.0029392	-0.0029099	-0.0029871	-0.0030212
37	-0.0026975	-0.0027082	-0.0028313	-0.0028573	-0.0027456	-0.0027262	-0.0028474	-0.0028036	-0.0027736	-0.0028564	-0.0029423
38	-0.0025556	-0.0025672	-0.002699	-0.0027269	-0.0026053	-0.0025847	-0.0027154	-0.002668	-0.0026374	-0.002726	-0.0028632
39	-0.0024141	-0.0024266	-0.0025668	-0.0025967	-0.0024653	-0.0024435	-0.0025834	-0.0025325	-0.0025013	-0.0025957	-0.0027839
40	-0.0022758	-0.0022884	-0.0024351	-0.002467	-0.0023264	-0.002304	-0.002452	-0.0023975	-0.0023661	-0.0024659	-0.0027044
41	-0.0022005	-0.0021936	-0.0023053	-0.0023416	-0.0021928	-0.0021852	-0.0023223	-0.002261	-0.0022313	-0.0023405	-0.0026248
42	-0.0022367	-0.0022254	-0.0021816	-0.0022159	-0.0021902	-0.0022065	-0.002196	-0.0021536	-0.0021665	-0.0022148	-0.002545
43	-0.0022741	-0.002262	-0.0021448	-0.0021279	-0.0022258	-0.0022431	-0.0021312	-0.0021663	-0.0021962	-0.002127	-0.0024651
44	-0.0023097	-0.0022969	-0.0021719	-0.0021449	-0.0022601	-0.0022782	-0.0021558	-0.0021967	-0.0022274	-0.0021441	-0.0023851
45	-0.002343	-0.0023294	-0.0021983	-0.0021696	-0.0022921	-0.0023109	-0.0021819	-0.0022253	-0.0022564	-0.0021688	-0.002305
46	-0.0023739	-0.0023596	-0.0022225	-0.0021923	-0.0023218	-0.0023414	-0.0022058	-0.0022517	-0.0022832	-0.0021915	-0.0021593
47	-0.0024019	-0.0023868	-0.0022439	-0.0022123	-0.0023486	-0.0023689	-0.002227	-0.0022751	-0.002307	-0.0022114	-0.0020764
48	-0.0024269	-0.0024111	-0.0022625	-0.0022295	-0.0023725	-0.0023936	-0.0022455	-0.0022958	-0.002328	-0.0022286	-0.0019932
49	-0.0024485	-0.0024321	-0.002278	-0.0022438	-0.0023932	-0.0024149	-0.0022609	-0.0023133	-0.0023457	-0.0022428	-0.0019098
50	-0.002467	-0.0024499	-0.0022906	-0.0022551	-0.0024108	-0.0024331	-0.0022734	-0.0023278	-0.0023605	-0.0022541	-0.001826
51	-0.0024117	-0.0023797	-0.0022652	-0.0022744	-0.0023649	-0.0023723	-0.0022481	-0.0023214	-0.0023539	-0.0022732	-0.0017412
52	-0.0024184	-0.0023848	-0.0022692	-0.0022806	-0.0023716	-0.0023785	-0.0022521	-0.0023284	-0.002361	-0.0022793	-0.0016533
53	-0.0024217	-0.0023865	-0.0022702	-0.0022837	-0.0023749	-0.0023812	-0.0022531	-0.0023321	-0.0023648	-0.0022824	-0.0015816
54	-0.0024213	-0.0023847	-0.002268	-0.0022837	-0.0023747	-0.0023803	-0.0022509	-0.0023325	-0.0023652	-0.0022824	-0.0015666
55	-0.0024173	-0.0023793	-0.0022627	-0.0022807	-0.0023711	-0.002376	-0.0022457	-0.0023296	-0.0023623	-0.0022793	-0.0015639
56	-0.0024099	-0.0023706	-0.0022545	-0.0022747	-0.0023639	-0.0023682	-0.0022375	-0.0023234	-0.002356	-0.0022731	-0.0015634
57	-0.0023988	-0.0023583	-0.0022431	-0.0022655	-0.0023533	-0.0023568	-0.0022263	-0.0023139	-0.0023464	-0.0022639	-0.0015636
58	-0.0023841	-0.0023425	-0.0022288	-0.0022534	-0.0023392	-0.0023419	-0.002212	-0.0023011	-0.0023334	-0.0022517	-0.0015641
59	-0.0023657	-0.0023233	-0.0022115	-0.0022381	-0.0023214	-0.0023234	-0.0021948	-0.0022849	-0.002317	-0.0022364	-0.0015512
60	-0.0023439	-0.0023007	-0.0021912	-0.00222	-0.0023004	-0.0023015	-0.0021747	-0.0022655	-0.0022973	-0.0022181	-0.0014302
61	-0.0021927	-0.0022315	-0.0022916	-0.0023463	-0.0021736	-0.0021756	-0.0022744	-0.0022321	-0.0022634	-0.0023406	-0.0014311
62	-0.0021603	-0.0022018	-0.0022715	-0.0023289	-0.002143	-0.0021442	-0.0022543	-0.0022069	-0.0022379	-0.002323	-0.001432
63	-0.0021238	-0.0021678	-0.0022468	-0.0023068	-0.0021083	-0.0021087	-0.0022299	-0.0021775	-0.002208	-0.0023007	-0.001433
64	-0.0020849	-0.0021314	-0.0022194	-0.0022817	-0.0020712	-0.0020709	-0.0022027	-0.0021454	-0.0021755	-0.0022754	-0.001434
65	-0.0020451	-0.0020938	-0.0021903	-0.0022548	-0.0020331	-0.002032	-0.0021738	-0.002112	-0.0021416	-0.0022482	-0.0014349
66	-0.002002	-0.0020527	-0.0021574	-0.0022236	-0.0019917	-0.0019899	-0.0021411	-0.0020749	-0.002104	-0.0022169	-0.0014359
67	-0.0019569	-0.0020093	-0.0021216	-0.0021895	-0.0019482	-0.0019456	-0.0021056	-0.0020354	-0.0020639	-0.0021826	-0.001276
68	-0.0019114	-0.0019654	-0.0020849	-0.002154	-0.0019043	-0.001901	-0.0020691	-0.0019951	-0.002023	-0.002147	-0.0012772
69	-0.0018631	-0.0019184	-0.0020444	-0.0021146	-0.0018575	-0.0018535	-0.002029	-0.0019514	-0.0019788	-0.0021075	-0.0012783
70	-0.0017885	-0.0018454	-0.0019895	-0.0020587	-0.0017857	-0.0017791	-0.0019745	-0.0018863	-0.0019128	-0.0020514	-0.0012642
71	-0.0017583	-0.0017845	-0.0019015	-0.0019152	-0.0017443	-0.001736	-0.0018872	-0.0018149	-0.0018403	-0.0019092	-0.0012781
72	-0.001695	-0.0017212	-0.00184	-0.0018533	-0.0016821	-0.0016735	-0.0018261	-0.001753	-0.0017776	-0.0018474	-0.001279
73	-0.0016319	-0.001658	-0.0017783	-0.0017911	-0.0016201	-0.0016111	-0.0017649	-0.0016911	-0.0017148	-0.0017853	-0.0012798
74	-0.0015703	-0.0015961	-0.0017174	-0.0017298	-0.0015594	-0.0015501	-0.0017045	-0.0016304	-0.0016532	-0.001724	-0.0012805
75	-0.0015087	-0.0015342	-0.0016562	-0.0016681	-0.0014987	-0.0014892	-0.0016437	-0.0015694	-0.0015914	-0.0016624	-0.0012812
76	-0.0014999	-0.0014844	-0.0015663	-0.001504	-0.0014739	-0.0014633	-0.0015545	-0.0015049	-0.001526	-0.0014999	-0.0012817
77	-0.0014404	-0.0014251	-0.0015078	-0.0014462	-0.0014154	-0.0014046	-0.0014964	-0.0014464	-0.0014667	-0.0014421	-0.0010985
78	-0.0013812	-0.0013662	-0.0014494	-0.0013886	-0.0013573	-0.0013463	-0.0014384	-0.0013882	-0.0014077	-0.0013847	-0.00099143
79	-0.0013234	-0.0013089	-0.0013923	-0.0013326	-0.0013007	-0.0012896	-0.0013818	-0.0013315	-0.0013502	-0.0013287	-0.00099214
80	-0.0012676	-0.0012534	-0.0013368	-0.0012783	-0.0012459	-0.0012347	-0.0013267	-0.0012765	-0.0012943	-0.0012746	-0.0009927
81	-0.0012104	-0.001196	-0.0012827	-0.0012223	-0.0011897	-0.0011781	-0.001273	-0.0012212	-0.0012383	-0.0012186	-0.00099318
82	-0.0011566	-0.0011427	-0.0012289	-0.0011701	-0.001137	-0.0011253	-0.0012196	-0.001168	-0.0011844	-0.0011665	-0.00099357
83	-0.0011045	-0.0010912	-0.0011766	-0.0011195	-0.001086	-0.0010743	-0.0011677	-0.0011165	-0.0011322	-0.0011161	-0.00099387
84	-0.0010533	-0.0010405	-0.0011249	-0.0010698	-0.0010358	-0.0010241	-0.0011164	-0.0010657	-0.0010807	-0.0010665	-0.00099407
85	-0.0010033	-0.0009911	-0.0010744	-0.0010213	-0.00098683	-0.00097521	-0.0010663	-0.0010162	-0.0010304	-0.0010181	-0.00099424
86	-0.00048163	-0.0009583	-0.00077042	-0.000988	-0.00094911	-0.00046132	-0.00076462	-0.00096975	-0.00098335	-0.00098523	-0.00099422
87	-0.00045268	-0.00091122	-0.00073215	-0.00094171	-0.00090258	-0.00043323	-0.00072663	-0.00092276	-0.0009357	-0.00093904	-0.00099424
88	-0.00042629	-0.00086567	-0.00069582	-0.0008969	-0.00085756	-0.00040767	-0.00069057	-0.00087724	-0.00088954	-0.00089433	-0.000876
89	-0.00040243	-0.00082179	-0.00066146	-0.00085366	-0.00081416	-0.00038465	-0.00065648	-0.0008333	-0.00084499	-0.0008512	-0.00080374
90	-0.00038028	-0.0007788	-0.0006283	-0.00081124	-0.00077165	-0.00036333	-0.00062356	-0.0007902	-0.00080128	-0.00080888	-0.00080377
91	-0.00067287	-0.00023653	-0.00068512	-0.00077521	-0.0002381	-0.00066289	-0.00067996	-0.00028344	-0.00028739	-0.00077319	-0.00080373
92	-0.00063995	-0.00024652	-0.00065144	-0.00073577	-0.00024776	-0.00063046	-0.00064653	-0.00026667	-0.00027038	-0.00073385	-0.00080358
93	-0.00060792	-0.00025224	-0.00061863	-0.0006971	-0.00025316	-0.0005989	-0.00061397	-0.00025141	-0.00025489	-0.00069528	-0.00080339
94	-0.00058019	-0.00022267	-0.00059026	-0.0006632	-0.00022376	-0.00057149	-0.00058577	-0.00021795	-0.00022189	-0.00066147	-0.00080324
95	-0.00054966	-0.00025442	-0.00055851	-0.00062267	-0.00025509	-0.00054151	-0.0005543	-0.00022852	-0.00023164	-0.00062104	-0.00074259
96	-0.00056099	-0.00055265	-0.00059701	-0.00028381	-0.00054437	-0.00055267	-0.00059251	-0.0005794	-0.00058753	-0.00028378	-0.00070595
97	-0.00053131	-0.00052352	-0.00056473	-0.0002693	-0.00051568	-0.00052343	-0.00056047	-0.0005482	-0.00055589	-0.00026928	-0.00070559
98	-0.00050343	-0.00049618	-0.00053424	-0.00025666	-0.00048875	-0.00049596	-0.00053022	-0.00051877	-0.00052605	-0.00025663	-0.00070517
99	-0.00047637	-0.00046966	-0.0005046	-0.00024486	-0.00046262	-0.0004693	-0.0005008	-0.00049018	-0.00049705	-0.00024483	-0.00070468
100	-0.00045078	-0.0004446	-0.00047646	-0.0002345	-0.00043794	-0.00044409	-0.00047287	-0.00046305	-0.00046954	-0.00023446	-0.00070411
101	-0.00043378	-0.00043265	-0.00044178	-0.00037011	-0.00042617	-0.00042735	-0.00043845	-0.00043435	-0.00044044	-0.0003696	-0.00057053
102	-0.00040997	-0.00040903	-0.00041665	-0.00035096	-0.0004029	-0.00040389	-0.00041351	-0.0004098	-0.00041555	-0.00035047	-0.00048872
